# Time (s), X (m), Y (m), Z (m)
0.000000,0.000000,0.000000,200.000000
0.010000,0.000000,-0.000000,200.000000
0.020000,-0.000011,0.000004,200.000670
0.030000,-0.000155,0.000056,200.009440
0.040000,-0.000458,0.000167,200.027921
0.050000,-0.000919,0.000334,200.056020
0.060000,-0.001534,0.000559,200.093552
0.070000,-0.002293,0.000835,200.139812
0.080000,-0.003189,0.001161,200.194440
0.090000,-0.004222,0.001537,200.257409
0.100000,-0.005394,0.001963,200.328836
0.110000,-0.006706,0.002441,200.408836
0.120000,-0.008161,0.002970,200.497527
0.130000,-0.009760,0.003552,200.595029
0.140000,-0.011506,0.004188,200.701460
0.150000,-0.013400,0.004877,200.816926
0.160000,-0.015443,0.005621,200.941538
0.170000,-0.017638,0.006420,201.075335
0.180000,-0.019984,0.007274,201.218363
0.190000,-0.022483,0.008183,201.370705
0.200000,-0.025131,0.009147,201.532142
0.210000,-0.027927,0.010165,201.702558
0.220000,-0.030876,0.011238,201.882341
0.230000,-0.033986,0.012370,202.071933
0.240000,-0.037263,0.013563,202.271779
0.250000,-0.040700,0.014813,202.481619
0.260000,-0.044258,0.016109,202.699346
0.270000,-0.047966,0.017458,202.926739
0.280000,-0.051820,0.018861,203.163610
0.290000,-0.055822,0.020318,203.410049
0.300000,-0.059972,0.021828,203.666082
0.310000,-0.064272,0.023393,203.931733
0.320000,-0.068721,0.025012,204.207028
0.330000,-0.073322,0.026687,204.491992
0.340000,-0.078076,0.028417,204.786654
0.350000,-0.082986,0.030205,205.091047
0.360000,-0.088057,0.032050,205.405199
0.370000,-0.093290,0.033955,205.729142
0.380000,-0.098689,0.035920,206.062906
0.390000,-0.104258,0.037947,206.406519
0.400000,-0.110003,0.040038,206.760009
0.410000,-0.115928,0.042195,207.123405
0.420000,-0.122040,0.044419,207.496734
0.430000,-0.128342,0.046713,207.880024
0.440000,-0.134842,0.049078,208.273295
0.450000,-0.141547,0.051519,208.676566
0.460000,-0.148465,0.054037,209.089858
0.470000,-0.155604,0.056635,209.513187
0.480000,-0.162972,0.059317,209.946568
0.490000,-0.170580,0.062086,210.390013
0.500000,-0.178435,0.064945,210.843535
0.510000,-0.186547,0.067898,211.307145
0.520000,-0.194928,0.070948,211.780858
0.530000,-0.203589,0.074100,212.264688
0.540000,-0.212541,0.077359,212.758650
0.550000,-0.221797,0.080727,213.262758
0.560000,-0.231368,0.084211,213.777025
0.570000,-0.241269,0.087815,214.301465
0.580000,-0.251512,0.091543,214.836091
0.590000,-0.262111,0.095401,215.380916
0.600000,-0.273081,0.099393,215.935953
0.610000,-0.284437,0.103527,216.501214
0.620000,-0.296196,0.107806,217.076712
0.630000,-0.308371,0.112238,217.662459
0.640000,-0.320980,0.116827,218.258468
0.650000,-0.334038,0.121580,218.864750
0.660000,-0.347562,0.126502,219.481317
0.670000,-0.361569,0.131600,220.108180
0.680000,-0.376076,0.136881,220.745352
0.690000,-0.391099,0.142348,221.392842
0.700000,-0.406655,0.148010,222.050661
0.710000,-0.422761,0.153872,222.718817
0.720000,-0.439434,0.159941,223.397318
0.730000,-0.456690,0.166221,224.086171
0.740000,-0.474546,0.172721,224.785386
0.750000,-0.493018,0.179444,225.494965
0.760000,-0.512121,0.186397,226.214908
0.770000,-0.531869,0.193584,226.945215
0.780000,-0.552277,0.201012,227.685884
0.790000,-0.573360,0.208686,228.436916
0.800000,-0.595131,0.216610,229.198307
0.810000,-0.617602,0.224789,229.970052
0.820000,-0.640782,0.233226,230.752147
0.830000,-0.664683,0.241925,231.544586
0.840000,-0.689316,0.250891,232.347364
0.850000,-0.714691,0.260126,233.160477
0.860000,-0.740814,0.269634,233.983924
0.870000,-0.767692,0.279417,234.817707
0.880000,-0.795332,0.289477,235.661825
0.890000,-0.823738,0.299816,236.516275
0.900000,-0.852912,0.310434,237.381053
0.910000,-0.882857,0.321334,238.256156
0.920000,-0.913575,0.332514,239.141579
0.930000,-0.945063,0.343975,240.037321
0.940000,-0.977321,0.355716,240.943377
0.950000,-1.010346,0.367736,241.859745
0.960000,-1.044134,0.380034,242.786421
0.970000,-1.078680,0.392607,243.723401
0.980000,-1.113977,0.405455,244.670684
0.990000,-1.150018,0.418572,245.628263
1.000000,-1.186791,0.431957,246.596135
1.010000,-1.224288,0.445604,247.574296
1.020000,-1.262496,0.459511,248.562737
1.030000,-1.301404,0.473672,249.561446
1.040000,-1.340996,0.488083,250.570407
1.050000,-1.381261,0.502738,251.589607
1.060000,-1.422182,0.517632,252.619025
1.070000,-1.463744,0.532759,253.658636
1.080000,-1.505929,0.548114,254.708412
1.090000,-1.548723,0.563689,255.768326
1.100000,-1.592107,0.579480,256.838353
1.110000,-1.636067,0.595480,257.918473
1.120000,-1.680586,0.611683,259.008665
1.130000,-1.725650,0.628085,260.108908
1.140000,-1.771242,0.644680,261.219180
1.150000,-1.817350,0.661461,262.339456
1.160000,-1.863960,0.678426,263.469714
1.170000,-1.911057,0.695568,264.609928
1.180000,-1.958631,0.712883,265.760074
1.190000,-2.006672,0.730369,266.920129
1.200000,-2.055171,0.748021,268.090066
1.210000,-2.104119,0.765837,269.269863
1.220000,-2.153511,0.783814,270.459493
1.230000,-2.203342,0.801951,271.658931
1.240000,-2.253609,0.820247,272.868151
1.250000,-2.304310,0.838700,274.087128
1.260000,-2.355445,0.857312,275.315836
1.270000,-2.407017,0.876082,276.554249
1.280000,-2.459026,0.895012,277.802342
1.290000,-2.511480,0.914104,279.060084
1.300000,-2.564382,0.933359,280.327445
1.310000,-2.617741,0.952780,281.604395
1.320000,-2.671564,0.972370,282.890902
1.330000,-2.725860,0.992132,284.186932
1.340000,-2.780641,1.012071,285.492449
1.350000,-2.835917,1.032190,286.807418
1.360000,-2.891700,1.052493,288.131798
1.370000,-2.948001,1.072985,289.465548
1.380000,-3.004833,1.093670,290.808626
1.390000,-3.062207,1.114552,292.160990
1.400000,-3.120135,1.135636,293.522598
1.410000,-3.178630,1.156927,294.893411
1.420000,-3.237702,1.178427,296.273389
1.430000,-3.297361,1.200141,297.662492
1.440000,-3.357616,1.222072,299.060682
1.450000,-3.418477,1.244224,300.467922
1.460000,-3.479949,1.266598,301.884173
1.470000,-3.542038,1.289196,303.309399
1.480000,-3.604749,1.312021,304.743563
1.490000,-3.668084,1.335074,306.186630
1.500000,-3.732045,1.358353,307.638562
1.510000,-3.796631,1.381861,309.099328
1.520000,-3.861840,1.405595,310.568895
1.530000,-3.927669,1.429554,312.047230
1.540000,-3.994111,1.453738,313.534302
1.550000,-4.061162,1.478142,315.030080
1.560000,-4.128812,1.502765,316.534530
1.570000,-4.197053,1.527602,318.047621
1.580000,-4.265874,1.552651,319.569321
1.590000,-4.335263,1.577907,321.099596
1.600000,-4.405208,1.603365,322.638412
1.610000,-4.475697,1.629020,324.185733
1.620000,-4.546714,1.654869,325.741520
1.630000,-4.618244,1.680903,327.305655
1.640000,-4.690262,1.707116,328.877916
1.650000,-4.762748,1.733499,330.458107
1.660000,-4.835685,1.760045,332.046041
1.670000,-4.909050,1.786748,333.641501
1.680000,-4.982823,1.813599,335.244261
1.690000,-5.056984,1.840592,336.854108
1.700000,-5.131518,1.867720,338.470831
1.710000,-5.206408,1.894978,340.094220
1.720000,-5.281639,1.922359,341.724029
1.730000,-5.357184,1.949855,343.359803
1.740000,-5.433007,1.977453,345.000831
1.750000,-5.509082,2.005142,346.646609
1.760000,-5.585397,2.032918,348.296823
1.770000,-5.661919,2.060770,349.950832
1.780000,-5.738628,2.088690,351.608181
1.790000,-5.815505,2.116671,353.268413
1.800000,-5.892526,2.144704,354.930989
1.810000,-5.969674,2.172784,356.595423
1.820000,-6.046934,2.200904,358.261336
1.830000,-6.124293,2.229060,359.928349
1.840000,-6.201737,2.257248,361.596129
1.850000,-6.279253,2.285461,363.264269
1.860000,-6.356823,2.313694,364.932338
1.870000,-6.434431,2.341941,366.599915
1.880000,-6.512059,2.370196,368.266601
1.890000,-6.589693,2.398452,369.932005
1.900000,-6.667313,2.426703,371.595728
1.910000,-6.744904,2.454944,373.257437
1.920000,-6.822459,2.483172,374.916940
1.930000,-6.899969,2.511383,376.574090
1.940000,-6.977430,2.539577,378.228773
1.950000,-7.054830,2.567748,379.880783
1.960000,-7.132161,2.595894,381.530009
1.970000,-7.209419,2.624014,383.176386
1.980000,-7.286596,2.652104,384.819800
1.990000,-7.363684,2.680162,386.460130
2.000000,-7.440676,2.708184,388.097297
2.010000,-7.517565,2.736170,389.731284
2.020000,-7.594350,2.764117,391.362098
2.030000,-7.671028,2.792026,392.989746
2.040000,-7.747595,2.819894,394.614236
2.050000,-7.824048,2.847721,396.235577
2.060000,-7.900384,2.875505,397.853778
2.070000,-7.976600,2.903245,399.468850
2.080000,-8.052691,2.930940,401.080803
2.090000,-8.128655,2.958588,402.689646
2.100000,-8.204489,2.986190,404.295387
2.110000,-8.280190,3.013743,405.898038
2.120000,-8.355758,3.041247,407.497605
2.130000,-8.431189,3.068702,409.094099
2.140000,-8.506482,3.096106,410.687529
2.150000,-8.581638,3.123461,412.277902
2.160000,-8.656655,3.150765,413.865228
2.170000,-8.731534,3.178019,415.449516
2.180000,-8.806276,3.205222,417.030773
2.190000,-8.880880,3.232376,418.609008
2.200000,-8.955350,3.259481,420.184231
2.210000,-9.029686,3.286537,421.756448
2.220000,-9.103891,3.313545,423.325670
2.230000,-9.177967,3.340507,424.891903
2.240000,-9.251916,3.367422,426.455156
2.250000,-9.325741,3.394292,428.015438
2.260000,-9.399445,3.421118,429.572757
2.270000,-9.473031,3.447901,431.127120
2.280000,-9.546502,3.474643,432.678535
2.290000,-9.619860,3.501343,434.227011
2.300000,-9.693109,3.528003,435.772556
2.310000,-9.766251,3.554625,437.315177
2.320000,-9.839288,3.581208,438.854883
2.330000,-9.912223,3.607754,440.391680
2.340000,-9.985058,3.634264,441.925578
2.350000,-10.057794,3.660738,443.456583
2.360000,-10.130434,3.687176,444.984704
2.370000,-10.202978,3.713580,446.509949
2.380000,-10.275427,3.739950,448.032324
2.390000,-10.347783,3.766285,449.551838
2.400000,-10.420046,3.792587,451.068498
2.410000,-10.492216,3.818854,452.582312
2.420000,-10.564293,3.845088,454.093287
2.430000,-10.636278,3.871288,455.601431
2.440000,-10.708169,3.897455,457.106752
2.450000,-10.779966,3.923587,458.609258
2.460000,-10.851668,3.949684,460.108954
2.470000,-10.923275,3.975747,461.605851
2.480000,-10.994785,4.001774,463.099953
2.490000,-11.066197,4.027766,464.591270
2.500000,-11.137511,4.053722,466.079808
2.510000,-11.208725,4.079642,467.565576
2.520000,-11.279837,4.105525,469.048580
2.530000,-11.350848,4.131371,470.528827
2.540000,-11.421755,4.157179,472.006326
2.550000,-11.492558,4.182949,473.481082
2.560000,-11.563255,4.208681,474.953104
2.570000,-11.633846,4.234374,476.422398
2.580000,-11.704330,4.260028,477.888971
2.590000,-11.774707,4.285643,479.352832
2.600000,-11.844976,4.311219,480.813985
2.610000,-11.915136,4.336755,482.272439
2.620000,-11.985188,4.362252,483.728200
2.630000,-12.055132,4.387709,485.181276
2.640000,-12.124968,4.413127,486.631672
2.650000,-12.194695,4.438506,488.079397
2.660000,-12.264316,4.463846,489.524455
2.670000,-12.333829,4.489147,490.966855
2.680000,-12.403237,4.514409,492.406603
2.690000,-12.472539,4.539633,493.843706
2.700000,-12.541737,4.564819,495.278169
2.710000,-12.610832,4.589968,496.710000
2.720000,-12.679825,4.615079,498.139206
2.730000,-12.748717,4.640153,499.565791
2.740000,-12.817509,4.665192,500.989764
2.750000,-12.886203,4.690194,502.411131
2.760000,-12.954800,4.715161,503.829897
2.770000,-13.023301,4.740094,505.246070
2.780000,-13.091707,4.764991,506.659655
2.790000,-13.160019,4.789855,508.070659
2.800000,-13.228239,4.814685,509.479088
2.810000,-13.296368,4.839482,510.884949
2.820000,-13.364407,4.864246,512.288247
2.830000,-13.432356,4.888978,513.688989
2.840000,-13.500217,4.913677,515.087181
2.850000,-13.567990,4.938345,516.482828
2.860000,-13.635677,4.962981,517.875938
2.870000,-13.703277,4.987585,519.266516
2.880000,-13.770792,5.012158,520.654568
2.890000,-13.838221,5.036701,522.040101
2.900000,-13.905566,5.061212,523.423120
2.910000,-13.972825,5.085692,524.803630
2.920000,-14.040000,5.110142,526.181639
2.930000,-14.107091,5.134561,527.557153
2.940000,-14.174097,5.158950,528.930176
2.950000,-14.241019,5.183307,530.300715
2.960000,-14.307856,5.207634,531.668776
2.970000,-14.374608,5.231930,533.034365
2.980000,-14.441275,5.256194,534.397487
2.990000,-14.507857,5.280428,535.758149
3.000000,-14.574353,5.304631,537.116356
3.010000,-14.640764,5.328802,538.472113
3.020000,-14.707088,5.352942,539.825428
3.030000,-14.773325,5.377051,541.176305
3.040000,-14.839476,5.401128,542.524751
3.050000,-14.905540,5.425173,543.870770
3.060000,-14.971516,5.449186,545.214368
3.070000,-15.037405,5.473168,546.555552
3.080000,-15.103206,5.497117,547.894326
3.090000,-15.168919,5.521035,549.230696
3.100000,-15.234544,5.544920,550.564668
3.110000,-15.300081,5.568774,551.896247
3.120000,-15.365529,5.592595,553.225439
3.130000,-15.430890,5.616385,554.552249
3.140000,-15.496163,5.640142,555.876682
3.150000,-15.561348,5.663867,557.198744
3.160000,-15.626445,5.687561,558.518440
3.170000,-15.691455,5.711223,559.835776
3.180000,-15.756378,5.734853,561.150756
3.190000,-15.821215,5.758451,562.463387
3.200000,-15.885965,5.782018,563.773672
3.210000,-15.950629,5.805554,565.081618
3.220000,-16.015208,5.829059,566.387230
3.230000,-16.079702,5.852533,567.690513
3.240000,-16.144112,5.875976,568.991471
3.250000,-16.208438,5.899389,570.290111
3.260000,-16.272680,5.922771,571.586437
3.270000,-16.336840,5.946123,572.880454
3.280000,-16.400917,5.969446,574.172167
3.290000,-16.464913,5.992738,575.461582
3.300000,-16.528828,6.016002,576.748703
3.310000,-16.592663,6.039235,578.033535
3.320000,-16.656417,6.062440,579.316084
3.330000,-16.720093,6.085616,580.596354
3.340000,-16.783689,6.108763,581.874350
3.350000,-16.847207,6.131882,583.150077
3.360000,-16.910648,6.154972,584.423540
3.370000,-16.974011,6.178035,585.694743
3.380000,-17.037298,6.201069,586.963693
3.390000,-17.100508,6.224076,588.230392
3.400000,-17.163642,6.247055,589.494847
3.410000,-17.226700,6.270006,590.757062
3.420000,-17.289683,6.292930,592.017041
3.430000,-17.352592,6.315827,593.274790
3.440000,-17.415425,6.338696,594.530313
3.450000,-17.478185,6.361539,595.783615
3.460000,-17.540870,6.384355,597.034701
3.470000,-17.603481,6.407143,598.283575
3.480000,-17.666019,6.429905,599.530241
3.490000,-17.728482,6.452640,600.774706
3.500000,-17.790873,6.475348,602.016972
3.510000,-17.853189,6.498030,603.257045
3.520000,-17.915433,6.520684,604.494929
3.530000,-17.977603,6.543312,605.730630
3.540000,-18.039700,6.565914,606.964150
3.550000,-18.101723,6.588488,608.195496
3.560000,-18.163674,6.611037,609.424672
3.570000,-18.225551,6.633558,610.651681
3.580000,-18.287355,6.656053,611.876529
3.590000,-18.349086,6.678521,613.099220
3.600000,-18.410743,6.700963,614.319758
3.610000,-18.472328,6.723377,615.538148
3.620000,-18.533839,6.745766,616.754394
3.630000,-18.595277,6.768127,617.968500
3.640000,-18.656642,6.790462,619.180471
3.650000,-18.717934,6.812771,620.390312
3.660000,-18.779153,6.835053,621.598025
3.670000,-18.840298,6.857308,622.803617
3.680000,-18.901371,6.879537,624.007091
3.690000,-18.962371,6.901739,625.208451
3.700000,-19.023299,6.923915,626.407702
3.710000,-19.084154,6.946064,627.604847
3.720000,-19.144936,6.968187,628.799892
3.730000,-19.205646,6.990284,629.992840
3.740000,-19.266285,7.012354,631.183695
3.750000,-19.326851,7.034398,632.372462
3.760000,-19.387346,7.056417,633.559145
3.770000,-19.447769,7.078409,634.743747
3.780000,-19.508121,7.100375,635.926273
3.790000,-19.568402,7.122316,637.106727
3.800000,-19.628612,7.144231,638.285113
3.810000,-19.688752,7.166120,639.461436
3.820000,-19.748822,7.187983,640.635698
3.830000,-19.808822,7.209822,641.807904
3.840000,-19.868752,7.231634,642.978059
3.850000,-19.928614,7.253422,644.146165
3.860000,-19.988406,7.275185,645.312227
3.870000,-20.048130,7.296923,646.476250
3.880000,-20.107785,7.318635,647.638236
3.890000,-20.167373,7.340324,648.798190
3.900000,-20.226893,7.361987,649.956115
3.910000,-20.286346,7.383626,651.112017
3.920000,-20.345732,7.405241,652.265898
3.930000,-20.405051,7.426831,653.417762
3.940000,-20.464303,7.448397,654.567613
3.950000,-20.523490,7.469939,655.715455
3.960000,-20.582611,7.491458,656.861292
3.970000,-20.641666,7.512952,658.005127
3.980000,-20.700656,7.534423,659.146965
3.990000,-20.759581,7.555870,660.286809
4.000000,-20.818442,7.577293,661.424662
4.010000,-20.877237,7.598693,662.560530
4.020000,-20.935969,7.620070,663.694414
4.030000,-20.994637,7.641423,664.826319
4.040000,-21.053240,7.662753,665.956249
4.050000,-21.111781,7.684060,667.084208
4.060000,-21.170257,7.705344,668.210198
4.070000,-21.228671,7.726604,669.334224
4.080000,-21.287021,7.747842,670.456289
4.090000,-21.345308,7.769057,671.576397
4.100000,-21.403533,7.790249,672.694552
4.110000,-21.461695,7.811418,673.810756
4.120000,-21.519794,7.832565,674.925015
4.130000,-21.577831,7.853688,676.037330
4.140000,-21.635806,7.874789,677.147706
4.150000,-21.693719,7.895868,678.256147
4.160000,-21.751569,7.916924,679.362655
4.170000,-21.809358,7.937957,680.467235
4.180000,-21.867085,7.958968,681.569890
4.190000,-21.924750,7.979956,682.670622
4.200000,-21.982353,8.000922,683.769437
4.210000,-22.039895,8.021866,684.866337
4.220000,-22.097375,8.042787,685.961326
4.230000,-22.154794,8.063686,687.054406
4.240000,-22.212152,8.084562,688.145582
4.250000,-22.269449,8.105417,689.234858
4.260000,-22.326684,8.126249,690.322235
4.270000,-22.383859,8.147058,691.407718
4.280000,-22.440973,8.167846,692.491311
4.290000,-22.498026,8.188612,693.573016
4.300000,-22.555018,8.209355,694.652836
4.310000,-22.611950,8.230077,695.730776
4.320000,-22.668821,8.250776,696.806838
4.330000,-22.725633,8.271454,697.881026
4.340000,-22.782384,8.292110,698.953343
4.350000,-22.839075,8.312743,700.023792
4.360000,-22.895706,8.333355,701.092376
4.370000,-22.952277,8.353946,702.159099
4.380000,-23.008789,8.374514,703.223965
4.390000,-23.065242,8.395061,704.286976
4.400000,-23.121635,8.415587,705.348135
4.410000,-23.177969,8.436091,706.407446
4.420000,-23.234244,8.456573,707.464911
4.430000,-23.290460,8.477034,708.520535
4.440000,-23.346618,8.497474,709.574320
4.450000,-23.402718,8.517893,710.626270
4.460000,-23.458759,8.538290,711.676387
4.470000,-23.514742,8.558666,712.724674
4.480000,-23.570667,8.579021,713.771135
4.490000,-23.626535,8.599355,714.815774
4.500000,-23.682345,8.619669,715.858592
4.510000,-23.738098,8.639961,716.899593
4.520000,-23.793794,8.660233,717.938780
4.530000,-23.849433,8.680484,718.976157
4.540000,-23.905015,8.700714,720.011725
4.550000,-23.960541,8.720924,721.045489
4.560000,-24.016011,8.741113,722.077451
4.570000,-24.071424,8.761282,723.107614
4.580000,-24.126782,8.781430,724.135982
4.590000,-24.182084,8.801559,725.162557
4.600000,-24.237330,8.821667,726.187341
4.610000,-24.292521,8.841755,727.210339
4.620000,-24.347657,8.861822,728.231553
4.630000,-24.402738,8.881870,729.250986
4.640000,-24.457764,8.901898,730.268641
4.650000,-24.512735,8.921906,731.284521
4.660000,-24.567652,8.941894,732.298628
4.670000,-24.622515,8.961863,733.310966
4.680000,-24.677324,8.981811,734.321538
4.690000,-24.732079,9.001740,735.330346
4.700000,-24.786779,9.021650,736.337393
4.710000,-24.841427,9.041540,737.342683
4.720000,-24.896020,9.061410,738.346217
4.730000,-24.950561,9.081261,739.347999
4.740000,-25.005048,9.101093,740.348032
4.750000,-25.059482,9.120906,741.346319
4.760000,-25.113863,9.140699,742.342861
4.770000,-25.168192,9.160473,743.337663
4.780000,-25.222467,9.180227,744.330726
4.790000,-25.276690,9.199963,745.322054
4.800000,-25.330861,9.219679,746.311649
4.810000,-25.384979,9.239377,747.299515
4.820000,-25.439046,9.259055,748.285653
4.830000,-25.493060,9.278715,749.270067
4.840000,-25.547022,9.298355,750.252760
4.850000,-25.600932,9.317977,751.233733
4.860000,-25.654790,9.337580,752.212991
4.870000,-25.708597,9.357164,753.190534
4.880000,-25.762353,9.376730,754.166367
4.890000,-25.816057,9.396276,755.140492
4.900000,-25.869709,9.415804,756.112911
4.910000,-25.923311,9.435314,757.083627
4.920000,-25.976861,9.454804,758.052644
4.930000,-26.030361,9.474277,759.019962
4.940000,-26.083810,9.493730,759.985586
4.950000,-26.137208,9.513166,760.949517
4.960000,-26.190555,9.532582,761.911759
4.970000,-26.243852,9.551981,762.872313
4.980000,-26.297099,9.571361,763.831183
4.990000,-26.350295,9.590723,764.788372
5.000000,-26.403441,9.610067,765.743880
5.010000,-26.456537,9.629392,766.697713
5.020000,-26.509583,9.648699,767.649870
5.030000,-26.562580,9.667988,768.600356
5.040000,-26.615526,9.687259,769.549173
